1441 tests
       x (m)                 y (m)                 z (m)              vx (m/sec)            vy (m/sec)            vz (m/sec)           ax (m/sec^2)          ay (m/sec^2)          az (m/sec^2)   
5275857.5220501004    3639499.0468708253    1081376.0191781884    -5057.863424187475    5562.6226050092791    5954.8270063006812    -7.653891068700143    -5.286531385911251    -1.573867986777502
4958880.9793218877    3963468.0011214972    1435532.8210229231    -5503.137097643852    5231.8629425477347    5845.3383469945556    -7.164944540260231    -5.733661959332665    -2.079536746649936
4616120.0915680779    4266832.2906870944    1782228.3971776022    -5916.493832611688    4876.6076370096116    5706.4650022522092    -6.591426843286176    -6.100064181242447    -2.550579024634074
4249631.6347931875    4548272.6049766038    2119769.3786142413    -6293.394890737779    4501.9473438758732    5540.6508882156213    -5.951994365474184    -6.378143094506986    -2.975011782020517
3861709.6348382458    4806786.0313566104    2446628.9954604288    -6630.492102734599    4113.2912896463195    5350.9763265843158    -5.267429148496372    -6.564967923228638    -3.343757649674998
3454811.1032718536    5041696.7946896562    2761479.7201701277    -6925.705161833479    3716.0896863640151    5140.9689808131116    -4.558940761571189    -6.662110836943910    -3.651077141571132
3031480.1405479233    5252650.9077861104    3063214.0197106246    -7178.200245772550    3315.5794929797648    4914.4004740209693    -3.846615398885859    -6.675042449552372    -3.894610224437027
2594275.9389083479    5439596.8549315026    3350953.0403538947    -7388.284718200277    2916.5760645123964    4675.0909366915621    -3.148199039698454    -6.612229278381427    -4.075078155051522
2145709.0501008341    5602755.4984589992    3624044.2594623370    -7557.241284757308    2523.3235899477459    4426.7391112241048    -2.478311546070287    -6.484102525076744    -4.195744639815853
1688188.7569018891    5742582.8739181543    3882050.0032179425    -7687.128069582667    2139.4073428637121    4172.7890277082552    -1.848098352572554    -6.302051931253202    -4.261752891121081
1223982.8355294992    5859729.4637683276    4124729.1824523360    -7780.569304195002    1767.7226879210991    3916.3374391246684    -1.265257655436651    -6.077556895441582    -4.279445592203932
755189.65002746938    5954999.0649853107    4352014.6712779216    -7840.556322587719    1410.4905366205203    3660.0805131907437    -0.734343197738958    -5.821516495832271    -4.255748137786306
283721.52877580276    6029309.6638952158    4563988.5372354826    -7870.272179257770    1069.3066477338102    3406.2944105832257    -0.257234171866294    -5.543794348137555    -4.197663021199356
-188702.2361939462    6083657.9684993252    4760856.9414919931    -7872.946982372895    745.21226136265796    3156.8424115219777     0.166323951597202    -5.252961053978751    -4.111893585090257
-660554.6910951596    6119088.5418851087    4942926.0687517580    -7851.745913174904    438.77521462502409    2913.2008549043826     0.538180779101015    -4.956198182877340    -4.004593256293018
-1130494.749207754    6136667.8995105680    5110579.9984650733    -7809.688271548851    150.17309594271106    2676.4968243612529     0.861292187805708    -4.659321183666956    -3.881222981139867
-1597356.700740878    6137463.5031115049    5264261.0405036751    -7749.593714461211    -120.7274732330931    2447.5517586517194     1.139306551653547    -4.366880543373970    -3.746493699189422
-2060137.193614136    6122527.2990709590    5404452.7517400011    -7674.050874056178    -374.2990788767038    2226.9265896185807     1.376234168297437    -4.082307081453688    -3.604370185270377
-2517980.877923138    6092883.2870746581    5531665.6275384258    -7585.403411699078    -611.0911188587851    2014.9653634639722     1.576196794356374    -3.808075496746187    -3.458115254422234
-2970165.622389545    6049518.5354776140    5646425.3150505424    -7485.748958230471    -831.7773027410238    1811.8354447255788     1.743247860284207    -3.545868253699551    -3.310357402013458
-3416087.953644441    5993377.0571960881    5749263.1090907445    -7376.947050931951    -1037.112704860272    1617.5632899510074     1.881251243321436    -3.296728616184553    -3.163169260490286
-3855249.162238702    5925355.9957559444    5840708.4509468749    -7260.632922625111    -1227.899522079031    1432.0654176962325     1.993806179647918    -3.061196780528274    -3.018148129500939
-4287242.348343139    5846303.6324242288    5921283.1418529926    -7138.234717155169    -1404.960433648602    1255.1746291714890     2.084206962587911    -2.839426689397650    -2.876492988819346
-4711740.557471390    5757018.7926335782    5991496.9946722314    -7010.992337773826    -1569.118395028309    1086.6617952503379     2.155427778952093    -2.631283468998162    -2.739074786870051
-5128486.063019217    5658251.3003199063    6051844.6709698103    -6879.976659027665    -1721.181736547472    926.25366501532267     2.210124902487092    -2.436422826691319    -2.606498486163522
-5537280.790194909    5550703.1930899471    6102803.4799687844    -6746.108246514244    -1861.933542965287    773.64720644141983     2.250650226469869    -2.254354454871427    -2.479156473027115
-5937977.834200682    5435030.4688424319    6144831.9467616575    -6610.175043552312    -1992.124421673504    628.52099099769362     2.279071646315400    -2.084491741201280    -2.357273636206449
-6330474.000409451    5311845.1838243222    6178368.9870429551    -6472.848714838335    -2112.467905653027    490.54410285372268     2.297197054690169    -1.926190060565635    -2.240944810507414
-6714703.280870037    5181717.7633692212    6203833.5530833304    -6334.699501114143    -2223.637869003062    359.38300536885623     2.306599695748049    -1.778775743958849    -2.130165464931197
-7090631.176538391    5045179.4199569160    6221624.6399998628    -6196.209550861666    -2326.267451597040    234.70674280599968     2.308643371988866    -1.641567565941158    -2.024856563870551
-7458249.774105265    4902724.6014175965    6232121.5623900844    -6057.784768671902    -2420.949090798120    116.19080011814685     2.304506547844054    -1.513892318371795    -1.924884498813302
-7817573.491976006    4754813.4110701904    6235684.4291950352    -5919.765264113545    -2508.235346552856    3.5198918885704860     2.295204790441741    -1.395095771762666    -1.830076912391546
-8168635.413184918    4601873.9618673110    6232654.7594925892    -5782.434511054296    -2588.640273785049    -103.6100950511857     2.281611262756883    -1.284550086182848    -1.740235141411277
-8511484.132626703    4444304.6358804563    6223356.1941481708    -5646.027337364577    -2662.641156604869    -205.4908214336697     2.264475172057451    -1.181658523337289    -1.655143904993263
-8846181.051486140    4282476.2327771885    6208095.2682113992    -5510.736867758014    -2730.680462364587    -302.4007285935456     2.244438197341941    -1.085858135523655    -1.574578767468940
-9172798.059815911    4116733.9971675258    6187162.2170001417    -5376.720538317973    -2793.167910671863    -394.6046646549873     2.222048994528276    -0.996620961136501    -1.498311817502465
-9491415.555081445    3947399.5200277148    6160831.7952706208    -5244.105293926611    -2850.482580590977    -482.3538079371701     2.197775920739138    -0.913454137830963    -1.426115927303362
-9802120.750250212    3774772.5148294857    6129364.0940125650    -5112.992071105194    -2902.975000167482    -565.8858114554253     2.172018138889069    -0.835899249653378    -1.357767889070817
-10105006.23232660    3599132.4684059047    6093005.3434773991    -4983.459657837118    -2950.969181024151    -645.4251085129419     2.145115269908490    -0.763531148524041    -1.293050669462611
-10400168.73519864    3420740.1738012009    6051988.6942404062    -4855.568013591496    -2994.764570410739    -721.1833323951698     2.117355755832664    -0.695956432510057    -1.231754975963655
-10687708.09799244    3239839.1470550285    6006534.9705947777    -4729.361121250726    -3034.637906147922    -793.3598136357380     2.088984088049477    -0.632811715359735    -1.173680290349050
-10967726.38149032    3056656.9377563419    5956853.3925044537    -4604.869435848581    -3070.844963228598    -862.1421266697818     2.060207042632603    -0.573761788210411    -1.118635492976423
-11240327.12136640    2871406.3362759044    5903142.2638296941    -4482.111984764763    -3103.622189604261    -927.7066643297674     2.031199051351275    -0.518497744925471    -1.066439175863539
-11505614.69774165    2684286.4878166397    5845589.6256657308    -4361.098168768045    -3133.188229035884    -990.2192238866090     2.002106822807802    -0.466735123249804    -1.016919721949838
-11763693.80516427    2495483.9174210839    5784373.8744858373    -4241.829305112922    -3159.745334207621    -1049.835592475790     1.973053315268580    -0.418212097043870    -0.969915211382055
-12014669.00825834    2305173.4737797133    5719664.3454070035    -4124.299949289152    -3183.480673332289    -1106.702122987758     1.944141150078703    -0.372687743569090    -0.925273202254684
-12258644.37084280    2113519.1976480419    5651621.8613534784    -4008.499026524044    -3204.567535414317    -1160.956294030053     1.915455543222641    -0.329940400576121    -0.882850422830282
-12495723.14790564    1920675.1209202574    5580399.2492153831    -3894.410799946567    -3223.166439788788    -1212.727249528586     1.887066822569771    -0.289766121764918    -0.842512403809786
-12726007.53141678    1726786.0014211072    5506141.8243183605    -3782.015698387567    -3239.426156116610    -1262.136315046349     1.859032588788462    -0.251977234015677    -0.804133072515096
-12949598.44193809    1531988.0001875933    5428987.8446589997    -3671.291024069111    -3253.484640484387    -1309.297489052122     1.831399570619319    -0.216400997102091    -0.767594325746538
-13166595.35977441    1336409.3030506501    5349068.9364399817    -3562.211556447786    -3265.469894613589    -1354.317908248495     1.804205217457309    -0.182878363012133    -0.732785593877359
-13377096.18933933    1140170.6951184140    5266510.4924707823    -3454.750067891463    -3275.500752842161    -1397.298286721810     1.777479066760602    -0.151262832203087    -0.699603405552031
-13581197.15238058    943386.08765680203    5181432.0449996907    -3348.877762571441    -3283.687603866207    -1438.333329163062     1.751243918059283    -0.121419401017061    -0.667950959711010
-13778992.70529959    746163.00593611656    5093947.6145160748    -3244.564650531829    -3290.133051263928    -1477.512118755442     1.725516840989873    -0.093223595888228    -0.637737710043683
-13970575.47737488    548603.03675134259    5004166.0360189518    -3141.779865002986    -3294.932519082431    -1514.918480573516     1.700310041069653    -0.066560587848045    -0.608878964946371
-14156036.22640327    350802.24317797652    4912191.2641911199    -3040.491931960332    -3298.174806043606    -1550.631321501811     1.675631603091057    -0.041324382409583    -0.581295505461019
-14335463.80931631    152851.54624019394    4818122.6588551588    -2940.668997954028    -3299.942593515247    -1584.724947787954     1.651486129543634    -0.017417078557591    -0.554913222307801
-14508945.16534596    -45162.92213254443    4722055.2520177756    -2842.279022473668    -3300.312910826528    -1617.269361401887     1.627875288926834     0.005251808130231    -0.529662772794035
-14676565.30979562    -243159.4929628236    4624079.9977387255    -2745.289939744135    -3299.357561743454    -1648.330536396765     1.604798286428577     0.026765963723157    -0.505479257572575
-14838407.33671286    -441060.6585909261    4524284.0059880354    -2649.669794292806    -3297.143515463456    -1677.970676463767     1.582252268066987     0.047202840345777    -0.482301917311771
-14994552.42900351    -638792.7935134009    4422750.7615848742    -2555.386854004034    -3293.733265221915    -1706.248454851903     1.560232667518966     0.066634171262591    -0.460073848443420
-15145079.87473889    -836285.8957513583    4319560.3292417172    -2462.409703876009    -3289.185157323908    -1733.219237788146     1.538733503525026     0.085126441053882    -0.438741737549449
-15290067.08855002    -1033473.347659136    4214789.5456709247    -2370.707323099489    -3283.553693279786    -1758.935292489302     1.517747635037904     0.102741314812975    -0.418255613534206
-15429589.63729257    -1230291.692719985    4108512.1996467812    -2280.249148239667    -3276.889807088925    -1783.445980805856     1.497266979631009     0.119536029778180    -0.398568616694033
-15563721.26897995    -1426680.430563986    4000799.2008549180    -2191.005123771928    -3269.241120398230    -1806.797939485590     1.477282700583697     0.135563753159639    -0.379636783716608
-15692533.94463020    -1622581.823946490    3891718.7383042001    -2102.945742798053    -3260.652176709231    -1829.035247986767     1.457785366754670     0.150873908736953    -0.361418847767014
-15816097.87204068    -1817940.722042213    3781336.4290210092    -2016.042078276342    -3251.164657244467    -1850.199584717613     1.438765089098486     0.165512475470022    -0.343876052685488
-15934481.54148079    -2012704.393310831    3669715.4576960895    -1930.265807267526    -3240.817579271712    -1870.330372520681     1.420211637053275     0.179522260281432    -0.326971980374010
-16047751.76233872    -2206822.372574825    3556916.7079052292    -1845.589228146014    -3229.647479129861    -1889.464914169873     1.402114537514550     0.192943147630313    -0.310672390546298
-16155973.70090625    -2400246.316289660    3442998.8854822549    -1761.985272808063    -3217.688580614522    -1907.638518593410     1.384463158904377     0.205812327778954    -0.294945071908589
-16259210.91857485    -2592929.868970574    3328018.6345797447    -1679.427513931993    -3204.972950429664    -1924.884618488784     1.367246782191153     0.218164505792604    -0.279759704085396
-16357525.41041494    -2784828.538034877    3212030.6469156709    -1597.890168420803    -3191.530641557721    -1941.234879947452     1.350454660926538     0.230032092943518    -0.265087729384861
-16450977.64384862    -2975899.577002616    3095087.7646678225    -1517.348097518744    -3177.389825635619    -1956.719304663165     1.334076071567363     0.241445382129288    -0.250902233883248
-16539626.59726030    -3166101.876238184    2977241.0774448160    -1437.776804174625    -3162.576915233547    -1971.366325256283     1.318100355581235     0.252432708771302    -0.237177836883381
-16623529.79826980    -3355395.861314755    2858540.0137315486    -1359.152427987151    -3147.116676928340    -1985.202894207108     1.302516954375756     0.263020598400651    -0.223890588457336
-16702743.36193870    -3543743.396388780    2739032.4271793691    -1281.451738527675    -3131.032335752268    -1998.254566854781     1.287315438150960     0.273233902122433    -0.211017874148708
-16777322.02805427    -3731107.695976910    2618764.6780830002    -1204.652126642826    -3114.345672041191    -2010.545578885096     1.272485529395298     0.283095921268185    -0.198538326547422
-16847319.19833637    -3917453.239948060    2497781.7103643054    -1128.731594933114    -3097.077110914601    -2022.098918697497     1.258017121885247     0.292628521746882    -0.186431743056667
-16912786.97272478    -4102745.695208204    2376127.1243581888    -1053.668746922525    -3079.245805286449    -2032.936395013756     1.243900295791569     0.301852239395290    -0.174679009552173
-16973776.18511193    -4286951.841608671    2253843.2456764248    -979.4427755323463    -3060.869712760822    -2043.078700062698     1.230125329378405     0.310786376988598    -0.163262029282476
-17030336.43837038    -4470039.502296646    2130971.1904052487    -906.0334509373090    -3041.965666941212    -2052.545468650364     1.216682707877449     0.319449093477635    -0.152163656794588
-17082516.13848238    -4651977.478771501    2007550.9268749568    -833.4211078601158    -3022.549443620233    -2061.355333401871     1.203563129916472     0.327857486458416    -0.141367636472838
-17130362.52831320    -4832735.488209097    1883621.3342234811    -761.5866328229202    -3002.635822137291    -2069.525976439287     1.190757511793883     0.336027667999052    -0.130858545161836
-17173921.71992490    -5012284.106871335    1759220.2579593901    -690.5114507439400    -2982.238642481691    -2077.074177740702     1.178256990018391     0.343974834929473    -0.120621738939402
-17213238.72692452    -5190594.713787844    1634384.5627180901    -620.1775119638076    -2961.370858200695    -2084.015860405944     1.166052922320236     0.351713333535720    -0.110643303307672
-17248357.49513286    -5367639.440634822    1509150.1823886319    -550.5672787018445    -2940.044585704225    -2090.366133039283     1.154136887345457     0.359256719596698    -0.100910006809288
-17279320.93337514    -5543391.121322780    1383552.1677802040    -481.6637121076411    -2918.271149982146    -2096.139329441389     1.142500683296219     0.366617813686571    -0.091409257830536
-17306170.94256452    -5717823.247282312    1257624.7319822684    -413.4502588976952    -2896.061127228198    -2101.349045791173     1.131136325651222     0.373808752680413    -0.082129064073312
-17328948.44478926    -5890909.922653333    1131401.2935658260    -345.9108385905975    -2873.424384409398    -2106.008175481714     1.120036044107180     0.380841037226706    -0.073057994910715
-17347693.41113972    -6062625.823344048    1004914.5177604811    -279.0298306753707    -2850.370116134547    -2110.128941764856     1.109192278907724     0.387725575926288    -0.064185146020422
-17362444.88896190    -6232946.157631858    878196.35573517473    -212.7920621175906    -2826.906878950683    -2113.722928345760     1.098597676631039     0.394472726303947    -0.055500106407778
-17373241.02833708    -6401846.628849078    751278.08210144145    -147.1827951142210    -2803.042623271703    -2116.801108059218     1.088245085537116     0.401092332825309    -0.046992927443871
-17380119.10787333    -6569303.399817875    624190.33075058786    -82.18771515321880    -2778.784723103138    -2119.373869749218     1.078127550620259     0.407593762327312    -0.038654093936779
-17383115.55956302    -6735293.059602625    496963.12912888179    -17.79291928539345    -2754.140003720095    -2121.451043464757     1.068238308298622     0.413985936967268    -0.030474496977232
-17382265.99355390    -6899792.590275693    369625.93104962585    46.015095027489863    -2729.114767430567    -2123.041924075967     1.058570780987554     0.420277364753334    -0.022445408415491
-17377605.22126337    -7062779.337757564    242207.64813200428    109.24944114177205    -2703.714817568464    -2124.155293407871     1.049118571405173     0.426476168343203    -0.014558456977066
-17369167.27903825    -7224230.980967348    114736.67995558058    171.92285363081638    -2677.945480826704    -2124.799440980624     1.039875456830217     0.432590111507298    -0.006805605726393
-17356985.44992601    -7384125.505443853    -12759.05699145087    234.04769883373527    -2651.811628033805    -2124.982183440233     1.030835383212652     0.438626624224869     0.000820869101248
-17341092.28612912    -7542441.174993048    -140252.1014909315    295.63598455628028    -2625.317693504332    -2124.710882755575     1.021992459296710     0.444592825820164     0.008328397964865
-17321519.62959563    -7699156.507531048    -267715.4208315698    356.69936989018237    -2598.467693006818    -2123.992463254344     1.013340950616353     0.450495546909654     0.015724136906646
-17298298.63313287    -7854250.249388495    -395122.3850334208    417.24917427905865    -2571.265240495668    -2122.833427562638     1.004875273566717     0.456341349710723     0.023014985207939
